   R [km]      D [g/ccm]   T [mev]     Y        
   1.167E-01   4.132E+14   1.259E+01   2.652E-01
   3.500E-01   4.078E+14   1.407E+01   2.792E-01
   5.833E-01   4.070E+14   1.404E+01   2.804E-01
   9.272E-01   4.057E+14   1.389E+01   2.788E-01
   1.302E+00   4.035E+14   1.368E+01   2.783E-01
   1.545E+00   4.014E+14   1.363E+01   2.785E-01
   1.703E+00   3.999E+14   1.356E+01   2.783E-01
   1.806E+00   3.989E+14   1.353E+01   2.783E-01
   1.872E+00   3.982E+14   1.351E+01   2.782E-01
   1.925E+00   3.976E+14   1.349E+01   2.782E-01
   1.980E+00   3.970E+14   1.347E+01   2.781E-01
   2.036E+00   3.963E+14   1.345E+01   2.781E-01
   2.094E+00   3.956E+14   1.343E+01   2.780E-01
   2.153E+00   3.949E+14   1.341E+01   2.780E-01
   2.214E+00   3.941E+14   1.338E+01   2.779E-01
   2.277E+00   3.933E+14   1.336E+01   2.779E-01
   2.342E+00   3.924E+14   1.334E+01   2.778E-01
   2.408E+00   3.915E+14   1.331E+01   2.778E-01
   2.476E+00   3.906E+14   1.329E+01   2.777E-01
   2.547E+00   3.895E+14   1.326E+01   2.776E-01
   2.619E+00   3.884E+14   1.322E+01   2.776E-01
   2.693E+00   3.873E+14   1.319E+01   2.775E-01
   2.770E+00   3.861E+14   1.315E+01   2.774E-01
   2.848E+00   3.848E+14   1.311E+01   2.773E-01
   2.929E+00   3.835E+14   1.307E+01   2.772E-01
   3.012E+00   3.821E+14   1.302E+01   2.771E-01
   3.098E+00   3.806E+14   1.297E+01   2.770E-01
   3.186E+00   3.790E+14   1.293E+01   2.768E-01
   3.276E+00   3.773E+14   1.288E+01   2.767E-01
   3.369E+00   3.755E+14   1.284E+01   2.766E-01
   3.465E+00   3.736E+14   1.280E+01   2.764E-01
   3.563E+00   3.716E+14   1.276E+01   2.763E-01
   3.664E+00   3.694E+14   1.273E+01   2.762E-01
   3.768E+00   3.671E+14   1.271E+01   2.760E-01
   3.875E+00   3.646E+14   1.266E+01   2.759E-01
   3.985E+00   3.621E+14   1.262E+01   2.757E-01
   4.098E+00   3.594E+14   1.257E+01   2.756E-01
   4.214E+00   3.565E+14   1.252E+01   2.754E-01
   4.334E+00   3.534E+14   1.246E+01   2.752E-01
   4.457E+00   3.503E+14   1.240E+01   2.750E-01
   4.583E+00   3.469E+14   1.234E+01   2.747E-01
   4.713E+00   3.433E+14   1.227E+01   2.745E-01
   4.847E+00   3.396E+14   1.221E+01   2.742E-01
   4.984E+00   3.356E+14   1.215E+01   2.740E-01
   5.126E+00   3.314E+14   1.209E+01   2.737E-01
   5.271E+00   3.270E+14   1.200E+01   2.733E-01
   5.421E+00   3.223E+14   1.192E+01   2.730E-01
   5.575E+00   3.173E+14   1.184E+01   2.726E-01
   5.733E+00   3.120E+14   1.176E+01   2.723E-01
   5.896E+00   3.064E+14   1.170E+01   2.718E-01
   6.063E+00   3.006E+14   1.163E+01   2.714E-01
   6.235E+00   2.944E+14   1.153E+01   2.709E-01
   6.412E+00   2.878E+14   1.143E+01   2.703E-01
   6.594E+00   2.810E+14   1.133E+01   2.697E-01
   6.781E+00   2.737E+14   1.125E+01   2.690E-01
   6.973E+00   2.659E+14   1.118E+01   2.683E-01
   7.171E+00   2.576E+14   1.112E+01   2.675E-01
   7.375E+00   2.487E+14   1.113E+01   2.666E-01
   7.584E+00   2.389E+14   1.121E+01   2.658E-01
   7.799E+00   2.284E+14   1.136E+01   2.649E-01
   8.021E+00   2.170E+14   1.160E+01   2.640E-01
   8.248E+00   2.046E+14   1.194E+01   2.631E-01
   8.482E+00   1.911E+14   1.235E+01   2.623E-01
   8.723E+00   1.767E+14   1.285E+01   2.619E-01
   8.970E+00   1.611E+14   1.347E+01   2.621E-01
   9.225E+00   1.441E+14   1.419E+01   2.637E-01
   9.487E+00   1.263E+14   1.503E+01   2.671E-01
   9.756E+00   1.084E+14   1.590E+01   2.728E-01
   1.003E+01   9.188E+13   1.673E+01   2.795E-01
   1.032E+01   7.833E+13   1.740E+01   2.845E-01
   1.061E+01   6.714E+13   1.793E+01   2.892E-01
   1.091E+01   5.782E+13   1.841E+01   2.933E-01
   1.122E+01   5.044E+13   1.878E+01   2.952E-01
   1.154E+01   4.436E+13   1.908E+01   2.958E-01
   1.187E+01   3.934E+13   1.932E+01   2.951E-01
   1.220E+01   3.508E+13   1.951E+01   2.939E-01
   1.255E+01   3.145E+13   1.965E+01   2.922E-01
   1.291E+01   2.833E+13   1.974E+01   2.901E-01
   1.327E+01   2.564E+13   1.978E+01   2.876E-01
   1.365E+01   2.331E+13   1.978E+01   2.846E-01
   1.404E+01   2.129E+13   1.973E+01   2.810E-01
   1.443E+01   1.953E+13   1.964E+01   2.770E-01
   1.484E+01   1.799E+13   1.950E+01   2.723E-01
   1.527E+01   1.664E+13   1.932E+01   2.670E-01
   1.570E+01   1.544E+13   1.910E+01   2.611E-01
   1.614E+01   1.436E+13   1.885E+01   2.548E-01
   1.660E+01   1.340E+13   1.857E+01   2.482E-01
   1.707E+01   1.252E+13   1.825E+01   2.414E-01
   1.756E+01   1.172E+13   1.791E+01   2.344E-01
   1.805E+01   1.097E+13   1.755E+01   2.274E-01
   1.857E+01   1.028E+13   1.718E+01   2.204E-01
   1.909E+01   9.638E+12   1.678E+01   2.136E-01
   1.964E+01   9.030E+12   1.638E+01   2.070E-01
   2.019E+01   8.456E+12   1.596E+01   2.006E-01
   2.077E+01   7.911E+12   1.554E+01   1.944E-01
   2.136E+01   7.392E+12   1.512E+01   1.887E-01
   2.196E+01   6.898E+12   1.469E+01   1.831E-01
   2.259E+01   6.426E+12   1.427E+01   1.780E-01
   2.323E+01   5.976E+12   1.385E+01   1.732E-01
   2.389E+01   5.545E+12   1.343E+01   1.688E-01
   2.456E+01   5.133E+12   1.303E+01   1.648E-01
   2.526E+01   4.742E+12   1.263E+01   1.610E-01
   2.598E+01   4.369E+12   1.225E+01   1.578E-01
   2.671E+01   4.016E+12   1.188E+01   1.549E-01
   2.747E+01   3.681E+12   1.152E+01   1.525E-01
   2.825E+01   3.368E+12   1.117E+01   1.501E-01
   2.905E+01   3.074E+12   1.083E+01   1.482E-01
   2.988E+01   2.801E+12   1.051E+01   1.465E-01
   3.073E+01   2.547E+12   1.019E+01   1.451E-01
   3.160E+01   2.314E+12   9.879E+00   1.438E-01
   3.249E+01   2.099E+12   9.577E+00   1.426E-01
   3.341E+01   1.902E+12   9.280E+00   1.415E-01
   3.436E+01   1.722E+12   8.988E+00   1.403E-01
   3.534E+01   1.558E+12   8.700E+00   1.393E-01
   3.634E+01   1.408E+12   8.415E+00   1.381E-01
   3.737E+01   1.271E+12   8.136E+00   1.370E-01
   3.843E+01   1.146E+12   7.859E+00   1.359E-01
   3.952E+01   1.032E+12   7.588E+00   1.347E-01
   4.065E+01   9.285E+11   7.321E+00   1.338E-01
   4.180E+01   8.338E+11   7.061E+00   1.328E-01
   4.298E+01   7.472E+11   6.809E+00   1.320E-01
   4.420E+01   6.682E+11   6.563E+00   1.313E-01
   4.546E+01   5.964E+11   6.326E+00   1.306E-01
   4.675E+01   5.309E+11   6.099E+00   1.302E-01
   4.808E+01   4.715E+11   5.879E+00   1.301E-01
   4.944E+01   4.177E+11   5.670E+00   1.300E-01
   5.084E+01   3.690E+11   5.470E+00   1.304E-01
   5.228E+01   3.253E+11   5.279E+00   1.309E-01
   5.377E+01   2.860E+11   5.098E+00   1.317E-01
   5.529E+01   2.509E+11   4.926E+00   1.328E-01
   5.686E+01   2.197E+11   4.763E+00   1.341E-01
   5.848E+01   1.919E+11   4.610E+00   1.358E-01
   6.014E+01   1.674E+11   4.464E+00   1.379E-01
   6.184E+01   1.457E+11   4.327E+00   1.402E-01
   6.360E+01   1.268E+11   4.197E+00   1.429E-01
   6.540E+01   1.102E+11   4.076E+00   1.457E-01
   6.726E+01   9.566E+10   3.961E+00   1.490E-01
   6.917E+01   8.303E+10   3.853E+00   1.525E-01
   7.113E+01   7.206E+10   3.750E+00   1.564E-01
   7.315E+01   6.252E+10   3.653E+00   1.603E-01
   7.522E+01   5.428E+10   3.559E+00   1.648E-01
   7.736E+01   4.714E+10   3.470E+00   1.693E-01
   7.955E+01   4.100E+10   3.382E+00   1.740E-01
   8.181E+01   3.572E+10   3.297E+00   1.787E-01
   8.413E+01   3.118E+10   3.208E+00   1.833E-01
   8.652E+01   2.730E+10   3.118E+00   1.879E-01
   8.897E+01   2.399E+10   3.023E+00   1.923E-01
   9.150E+01   2.112E+10   2.931E+00   1.971E-01
   9.409E+01   1.864E+10   2.831E+00   2.028E-01
   9.676E+01   1.658E+10   2.721E+00   2.096E-01
   9.951E+01   1.489E+10   2.585E+00   2.190E-01
   1.023E+02   1.348E+10   2.425E+00   2.333E-01
   1.052E+02   1.221E+10   2.250E+00   2.544E-01
   1.082E+02   1.104E+10   2.054E+00   2.818E-01
   1.113E+02   9.444E+09   1.955E+00   3.133E-01
   1.145E+02   8.228E+09   1.849E+00   3.449E-01
   1.177E+02   7.144E+09   1.754E+00   3.780E-01
   1.210E+02   6.084E+09   1.703E+00   4.058E-01
   1.245E+02   5.324E+09   1.640E+00   4.332E-01
   1.280E+02   4.556E+09   1.569E+00   4.543E-01
   1.316E+02   4.087E+09   1.526E+00   4.718E-01
   1.354E+02   3.360E+09   1.450E+00   4.827E-01
   1.392E+02   2.709E+09   1.366E+00   4.910E-01
   1.432E+02   1.329E+09   1.184E+00   4.929E-01
   1.472E+02   4.337E+08   9.328E-01   4.930E-01
   1.514E+02   3.094E+08   7.438E-01   4.930E-01
   1.557E+02   2.907E+08   7.096E-01   4.932E-01
   1.601E+02   2.694E+08   6.911E-01   4.932E-01
   1.647E+02   2.613E+08   6.866E-01   4.934E-01
   1.693E+02   2.417E+08   6.768E-01   4.934E-01
   1.741E+02   2.340E+08   6.702E-01   4.936E-01
   1.791E+02   2.207E+08   6.582E-01   4.937E-01
   1.842E+02   2.105E+08   6.525E-01   4.939E-01
   1.894E+02   1.960E+08   6.421E-01   4.940E-01
   1.948E+02   1.915E+08   6.385E-01   4.942E-01
   2.003E+02   1.797E+08   6.218E-01   4.945E-01
   2.060E+02   1.733E+08   6.116E-01   4.947E-01
   2.118E+02   1.652E+08   6.019E-01   4.951E-01
   2.178E+02   1.551E+08   5.950E-01   4.954E-01
   2.240E+02   1.502E+08   5.903E-01   4.956E-01
   2.304E+02   1.419E+08   5.850E-01   4.958E-01
   2.369E+02   1.388E+08   5.825E-01   4.958E-01
   2.436E+02   1.328E+08   5.770E-01   4.959E-01
   2.505E+02   1.301E+08   5.737E-01   4.959E-01
   2.576E+02   1.234E+08   5.653E-01   4.959E-01
   2.650E+02   1.188E+08   5.617E-01   4.958E-01
   2.725E+02   1.111E+08   5.546E-01   4.955E-01
   2.802E+02   1.053E+08   5.453E-01   4.955E-01
   2.882E+02   1.010E+08   5.335E-01   4.955E-01
   2.963E+02   9.923E+07   5.265E-01   4.955E-01
   3.048E+02   9.674E+07   5.176E-01   4.955E-01
   3.134E+02   9.600E+07   5.149E-01   4.958E-01
   3.223E+02   9.235E+07   5.122E-01   4.962E-01
   3.314E+02   8.657E+07   5.091E-01   4.968E-01
   3.408E+02   7.667E+07   5.086E-01   4.973E-01
   3.505E+02   6.649E+07   5.072E-01   4.974E-01
   3.604E+02   6.399E+07   5.009E-01   4.974E-01
   3.707E+02   6.363E+07   4.955E-01   4.974E-01
   3.812E+02   6.930E+07   4.860E-01   4.972E-01
   3.919E+02   7.238E+07   4.771E-01   4.971E-01
   4.028E+02   7.103E+07   4.687E-01   4.971E-01
   4.138E+02   6.020E+07   4.825E-01   4.976E-01
   4.249E+02   5.680E+07   5.467E-01   4.979E-01
   4.362E+02   5.698E+07   5.729E-01   4.979E-01
   4.476E+02   5.841E+07   5.735E-01   4.979E-01
   4.592E+02   5.548E+07   5.624E-01   4.979E-01
   4.709E+02   5.345E+07   5.543E-01   4.979E-01
   4.828E+02   5.260E+07   5.508E-01   4.979E-01
   4.948E+02   4.968E+07   5.428E-01   4.979E-01
   5.069E+02   4.701E+07   5.365E-01   4.979E-01
   5.192E+02   4.610E+07   5.309E-01   4.979E-01
   5.317E+02   4.411E+07   5.224E-01   4.979E-01
   5.443E+02   4.334E+07   5.205E-01   4.979E-01
   5.571E+02   4.254E+07   5.164E-01   4.979E-01
   5.700E+02   4.080E+07   5.102E-01   4.979E-01
   5.831E+02   3.938E+07   5.048E-01   4.979E-01
   5.963E+02   3.856E+07   5.015E-01   4.979E-01
   6.098E+02   3.765E+07   4.980E-01   4.979E-01
   6.233E+02   3.681E+07   4.974E-01   4.980E-01
   6.371E+02   3.522E+07   4.906E-01   4.980E-01
   6.510E+02   3.452E+07   4.834E-01   4.980E-01
   6.651E+02   3.249E+07   4.730E-01   4.980E-01
   6.794E+02   3.086E+07   4.757E-01   4.980E-01
   6.939E+02   3.021E+07   4.652E-01   4.980E-01
   7.085E+02   2.887E+07   4.681E-01   4.980E-01
   7.233E+02   2.818E+07   4.610E-01   4.980E-01
   7.383E+02   2.717E+07   4.583E-01   4.980E-01
   7.535E+02   2.638E+07   4.502E-01   4.980E-01
   7.689E+02   2.590E+07   4.481E-01   4.980E-01
   7.845E+02   2.547E+07   4.429E-01   4.980E-01
   8.003E+02   2.484E+07   4.367E-01   4.980E-01
   8.162E+02   2.439E+07   4.322E-01   4.980E-01
   8.324E+02   2.381E+07   4.264E-01   4.980E-01
   8.488E+02   2.331E+07   4.220E-01   4.980E-01
   8.654E+02   2.229E+07   4.166E-01   4.980E-01
   8.821E+02   2.172E+07   4.141E-01   4.980E-01
   8.991E+02   2.081E+07   4.070E-01   4.980E-01
   9.163E+02   2.042E+07   4.036E-01   4.980E-01
   9.338E+02   1.956E+07   3.982E-01   4.980E-01
   9.514E+02   1.908E+07   3.962E-01   4.980E-01
   9.692E+02   1.806E+07   3.925E-01   4.980E-01
   9.873E+02   1.766E+07   3.909E-01   4.980E-01
   1.006E+03   1.697E+07   3.869E-01   4.980E-01
   1.024E+03   1.671E+07   3.856E-01   4.980E-01
   1.043E+03   1.607E+07   3.804E-01   4.980E-01
   1.062E+03   1.588E+07   3.786E-01   4.980E-01
   1.081E+03   2.169E+07   4.184E-01   4.980E-01
   1.101E+03   2.095E+07   3.603E-01   4.980E-01
   1.120E+03   1.778E+07   3.542E-01   4.980E-01
   1.140E+03   1.514E+07   3.196E-01   4.980E-01
   1.161E+03   1.432E+07   3.134E-01   4.980E-01
   1.181E+03   1.345E+07   3.077E-01   4.980E-01
   1.202E+03   1.324E+07   3.059E-01   4.980E-01
   1.223E+03   1.260E+07   3.005E-01   4.980E-01
   1.244E+03   1.237E+07   2.970E-01   4.980E-01
   1.266E+03   1.197E+07   2.889E-01   4.980E-01
   1.287E+03   1.181E+07   2.848E-01   4.980E-01
   1.309E+03   1.106E+07   2.818E-01   4.980E-01
   1.332E+03   1.071E+07   2.809E-01   4.982E-01
   1.354E+03   1.013E+07   2.757E-01   4.987E-01
   1.377E+03   9.212E+06   2.868E-01   4.995E-01
   1.400E+03   6.634E+06   3.165E-01   5.000E-01
   1.424E+03   5.912E+06   3.224E-01   5.000E-01
   1.448E+03   5.308E+06   3.231E-01   5.000E-01
   1.472E+03   4.632E+06   3.281E-01   5.000E-01
   1.496E+03   4.521E+06   3.247E-01   5.000E-01
   1.521E+03   4.336E+06   3.238E-01   5.000E-01
   1.546E+03   4.320E+06   3.205E-01   5.000E-01
   1.571E+03   4.224E+06   3.183E-01   5.000E-01
   1.596E+03   4.070E+06   3.168E-01   5.000E-01
   1.622E+03   3.978E+06   3.139E-01   5.000E-01
   1.649E+03   3.919E+06   3.117E-01   5.000E-01
   1.675E+03   3.788E+06   3.095E-01   5.000E-01
   1.702E+03   3.718E+06   3.086E-01   5.000E-01
   1.729E+03   3.713E+06   3.046E-01   5.000E-01
   1.757E+03   3.485E+06   3.045E-01   5.000E-01
   1.785E+03   3.417E+06   2.983E-01   5.000E-01
   1.813E+03   3.299E+06   2.962E-01   5.000E-01
   1.842E+03   3.224E+06   2.919E-01   5.000E-01
   1.871E+03   3.180E+06   2.901E-01   5.000E-01
   1.900E+03   3.094E+06   2.865E-01   5.000E-01
   1.930E+03   3.012E+06   2.852E-01   5.000E-01
   1.960E+03   2.937E+06   2.816E-01   5.000E-01
   1.990E+03   2.875E+06   2.802E-01   5.000E-01
   2.021E+03   2.789E+06   2.772E-01   5.000E-01
   2.052E+03   2.720E+06   2.752E-01   5.000E-01
   2.084E+03   2.634E+06   2.725E-01   5.000E-01
   2.116E+03   2.584E+06   2.709E-01   5.000E-01
   2.148E+03   2.508E+06   2.680E-01   5.000E-01
   2.181E+03   2.448E+06   2.656E-01   5.000E-01
   2.215E+03   2.387E+06   2.632E-01   5.000E-01
   2.248E+03   2.328E+06   2.611E-01   5.000E-01
   2.282E+03   2.275E+06   2.588E-01   5.000E-01
   2.317E+03   2.240E+06   2.573E-01   5.000E-01
   2.352E+03   2.224E+06   2.565E-01   5.000E-01
   2.387E+03   2.186E+06   2.548E-01   5.000E-01
   2.423E+03   2.129E+06   2.526E-01   5.000E-01
   2.459E+03   2.034E+06   2.491E-01   5.000E-01
   2.496E+03   1.964E+06   2.465E-01   5.000E-01
   2.533E+03   1.849E+06   2.420E-01   5.000E-01
   2.571E+03   1.763E+06   2.381E-01   5.000E-01
   2.609E+03   1.692E+06   2.347E-01   5.000E-01
   2.647E+03   1.638E+06   2.322E-01   5.000E-01
   2.686E+03   1.581E+06   2.295E-01   5.000E-01
   2.726E+03   1.540E+06   2.274E-01   5.000E-01
   2.766E+03   1.498E+06   2.253E-01   5.000E-01
   2.806E+03   1.454E+06   2.230E-01   5.000E-01
   2.848E+03   1.422E+06   2.213E-01   5.000E-01
   2.889E+03   1.384E+06   2.193E-01   5.000E-01
   2.931E+03   1.344E+06   2.175E-01   5.000E-01
   2.974E+03   1.301E+06   2.152E-01   5.000E-01
   3.017E+03   1.263E+06   2.131E-01   5.000E-01
   3.060E+03   1.225E+06   2.109E-01   5.000E-01
   3.105E+03   1.188E+06   2.087E-01   5.000E-01
   3.150E+03   1.151E+06   2.065E-01   5.000E-01
   3.195E+03   1.118E+06   2.046E-01   5.000E-01
   3.241E+03   1.086E+06   2.026E-01   5.000E-01
   3.287E+03   1.056E+06   2.006E-01   5.000E-01
   3.334E+03   1.026E+06   1.987E-01   5.000E-01
   3.382E+03   9.980E+05   1.968E-01   5.000E-01
   3.430E+03   9.702E+05   1.950E-01   5.000E-01
   3.479E+03   9.427E+05   1.933E-01   5.000E-01
   3.528E+03   9.129E+05   1.913E-01   5.000E-01
   3.578E+03   8.828E+05   1.892E-01   5.000E-01
   3.629E+03   8.572E+05   1.873E-01   5.000E-01
   3.680E+03   8.327E+05   1.855E-01   5.000E-01
   3.732E+03   8.078E+05   1.836E-01   5.000E-01
   3.785E+03   7.845E+05   1.818E-01   5.000E-01
   3.838E+03   7.625E+05   1.800E-01   5.000E-01
   3.892E+03   7.403E+05   1.782E-01   5.000E-01
   3.947E+03   7.194E+05   1.765E-01   5.000E-01
   4.002E+03   6.990E+05   1.748E-01   5.000E-01
   4.058E+03   6.791E+05   1.732E-01   5.000E-01
   4.115E+03   6.599E+05   1.716E-01   5.000E-01
   4.172E+03   6.406E+05   1.699E-01   5.000E-01
   4.230E+03   6.210E+05   1.681E-01   5.000E-01
   4.289E+03   6.016E+05   1.663E-01   5.000E-01
   4.349E+03   5.836E+05   1.646E-01   5.000E-01
   4.409E+03   5.659E+05   1.629E-01   5.000E-01
   4.470E+03   5.486E+05   1.612E-01   5.000E-01
   4.532E+03   5.326E+05   1.596E-01   5.000E-01
   4.594E+03   5.177E+05   1.580E-01   5.000E-01
   4.658E+03   5.035E+05   1.565E-01   5.000E-01
   4.722E+03   4.893E+05   1.550E-01   5.000E-01
   4.787E+03   4.756E+05   1.535E-01   5.000E-01
   4.853E+03   4.613E+05   1.520E-01   5.000E-01
   4.919E+03   4.467E+05   1.503E-01   5.000E-01
   4.987E+03   4.328E+05   1.487E-01   5.000E-01
   5.055E+03   4.197E+05   1.471E-01   5.000E-01
   5.124E+03   4.074E+05   1.456E-01   5.000E-01
   5.194E+03   3.954E+05   1.441E-01   5.000E-01
   5.265E+03   3.837E+05   1.426E-01   5.000E-01
   5.337E+03   3.725E+05   1.412E-01   5.000E-01
   5.410E+03   3.616E+05   1.397E-01   5.000E-01
   5.483E+03   3.512E+05   1.383E-01   5.000E-01
   5.558E+03   3.410E+05   1.369E-01   5.000E-01
   5.633E+03   3.300E+05   1.353E-01   5.000E-01
   5.709E+03   3.193E+05   1.338E-01   5.000E-01
   5.787E+03   3.091E+05   1.323E-01   5.000E-01
   5.865E+03   3.008E+05   1.311E-01   5.000E-01
   5.944E+03   2.909E+05   1.295E-01   5.000E-01
   6.025E+03   2.847E+05   1.286E-01   5.000E-01
   6.106E+03   2.779E+05   1.263E-01   5.000E-01
   6.188E+03   2.618E+05   1.258E-01   5.000E-01
   6.271E+03   2.540E+05   1.239E-01   5.000E-01
   6.356E+03   2.548E+05   1.228E-01   5.000E-01
   6.441E+03   2.462E+05   1.203E-01   5.000E-01
   6.528E+03   2.253E+05   1.203E-01   5.000E-01
   6.615E+03   2.264E+05   1.174E-01   5.000E-01
   6.704E+03   2.198E+05   1.173E-01   5.000E-01
   6.794E+03   2.124E+05   1.157E-01   5.000E-01
   6.884E+03   2.058E+05   1.145E-01   5.000E-01
   6.976E+03   1.988E+05   1.132E-01   5.000E-01
   7.070E+03   1.928E+05   1.120E-01   5.000E-01
   7.164E+03   1.868E+05   1.109E-01   5.000E-01
   7.259E+03   1.811E+05   1.097E-01   5.000E-01
   7.356E+03   1.752E+05   1.085E-01   5.000E-01
   7.454E+03   1.695E+05   1.072E-01   5.000E-01
   7.553E+03   1.641E+05   1.060E-01   5.000E-01
   7.653E+03   1.589E+05   1.049E-01   5.000E-01
   7.755E+03   1.540E+05   1.037E-01   5.000E-01
   7.858E+03   1.492E+05   1.025E-01   5.000E-01
   7.962E+03   1.445E+05   1.014E-01   5.000E-01
   8.068E+03   1.399E+05   1.003E-01   5.000E-01
   8.174E+03   1.357E+05   9.919E-02   5.000E-01
   8.282E+03   1.316E+05   9.809E-02   5.000E-01
   8.392E+03   1.276E+05   9.703E-02   5.000E-01
   8.503E+03   1.234E+05   9.588E-02   5.000E-01
   8.615E+03   1.193E+05   9.473E-02   5.000E-01
   8.729E+03   1.155E+05   9.362E-02   5.000E-01
   8.844E+03   1.118E+05   9.254E-02   5.000E-01
   8.960E+03   1.084E+05   9.149E-02   5.000E-01
   9.078E+03   1.053E+05   9.055E-02   5.000E-01
   9.198E+03   1.028E+05   8.989E-02   5.000E-01
   9.318E+03   1.012E+05   8.926E-02   5.000E-01
   9.441E+03   1.005E+05   8.871E-02   5.000E-01
   9.565E+03   1.003E+05   8.813E-02   5.000E-01
   9.690E+03   9.836E+04   8.857E-02   5.000E-01
   9.817E+03   9.274E+04   8.827E-02   5.000E-01
   9.941E+03   8.987E+04   8.826E-02   5.000E-01